  #       Time              Magnetic Energy      Axial Dipole g10   Axial Quadrupole g20       Axisymmetric ME      Mag. Dissipation
    0.000000000000E+00    0.228799504998E+06    0.644370190995E+00    0.912246041886E-13    0.171092001273E+06    0.175867736127E+08
    0.459265755232E-05    0.228799514697E+06    0.644370169020E+00    0.912562538027E-13    0.171091992606E+06    0.175867829780E+08
    0.314482934319E-03    0.228800275405E+06    0.644368758926E+00    0.933698476715E-13    0.171091420098E+06    0.175871608922E+08
    0.905130791362E-03    0.228801578651E+06    0.644365988089E+00    0.972787077475E-13    0.171090413275E+06    0.175878650529E+08
    0.149577864841E-02    0.228802814959E+06    0.644363195369E+00    0.101031226161E-12    0.171089520316E+06    0.175884733109E+08
    0.208642650545E-02    0.228804004235E+06    0.644360407063E+00    0.104627360854E-12    0.171088718891E+06    0.175890336444E+08
    0.267707436249E-02    0.228805231617E+06    0.644357619226E+00    0.108067155187E-12    0.171088054026E+06    0.175895793230E+08
    0.326772221954E-02    0.228806454895E+06    0.644354852238E+00    0.111351427407E-12    0.171087506301E+06    0.175900973330E+08
    0.385837007658E-02    0.228807691223E+06    0.644352106461E+00    0.114481201054E-12    0.171087062859E+06    0.175905946846E+08
    0.444901793362E-02    0.228808945508E+06    0.644349386672E+00    0.117457606908E-12    0.171086718047E+06    0.175910774176E+08
    0.503966579067E-02    0.228810207985E+06    0.644346696436E+00    0.120281741892E-12    0.171086458153E+06    0.175915423876E+08
    0.563031364771E-02    0.228811473044E+06    0.644344040177E+00    0.122954664377E-12    0.171086272718E+06    0.175919900739E+08
    0.622096150475E-02    0.228812733700E+06    0.644341420824E+00    0.125477687442E-12    0.171086151405E+06    0.175924211200E+08
    0.681160936179E-02    0.228813985721E+06    0.644338842832E+00    0.127852227613E-12    0.171086087086E+06    0.175928352280E+08
    0.740225721884E-02    0.228815223312E+06    0.644336310026E+00    0.130079969474E-12    0.171086072142E+06    0.175932319928E+08
    0.799290507588E-02    0.228816443109E+06    0.644333826555E+00    0.132162723301E-12    0.171086100606E+06    0.175936119320E+08
    0.858355293292E-02    0.228817641605E+06    0.644331396678E+00    0.134102227280E-12    0.171086167833E+06    0.175939748808E+08
    0.917420078997E-02    0.228818816236E+06    0.644329024182E+00    0.135900472119E-12    0.171086269090E+06    0.175943210910E+08
    0.976484864701E-02    0.228819964649E+06    0.644326713091E+00    0.137559448857E-12    0.171086400558E+06    0.175946507896E+08
    0.103554965041E-01    0.228821085036E+06    0.644324467057E+00    0.139081285894E-12    0.171086558846E+06    0.175949642844E+08
    0.109461443611E-01    0.228822175812E+06    0.644322289518E+00    0.140468293430E-12    0.171086740632E+06    0.175952620229E+08
    0.115367922181E-01    0.228823235477E+06    0.644320183770E+00    0.141722735500E-12    0.171086942919E+06    0.175955444892E+08
    0.121274400752E-01    0.228824262773E+06    0.644318152708E+00    0.142847006739E-12    0.171087162807E+06    0.175958123001E+08
    0.127180879322E-01    0.228825256411E+06    0.644316198981E+00    0.143843582229E-12    0.171087397361E+06    0.175960660788E+08
    0.133087357893E-01    0.228826215119E+06    0.644314324952E+00    0.144715055032E-12    0.171087643669E+06    0.175963065110E+08
    0.138993836463E-01    0.228827137653E+06    0.644312532619E+00    0.145463985726E-12    0.171087898723E+06    0.175965343207E+08
    0.144900315034E-01    0.228828022731E+06    0.644310823696E+00    0.146093055045E-12    0.171088159422E+06    0.175967502351E+08
    0.150806793604E-01    0.228828869090E+06    0.644309199562E+00    0.146605020298E-12    0.171088422617E+06    0.175969549985E+08
    0.156713272174E-01    0.228829675501E+06    0.644307661242E+00    0.147002588948E-12    0.171088685078E+06    0.175971493564E+08
    0.162619750745E-01    0.228830440772E+06    0.644306209441E+00    0.147288576047E-12    0.171088943563E+06    0.175973340376E+08
    0.168526229315E-01    0.228831163801E+06    0.644304844496E+00    0.147465801427E-12    0.171089194851E+06    0.175975097591E+08
    0.174432707886E-01    0.228831843599E+06    0.644303566379E+00    0.147537138468E-12    0.171089435777E+06    0.175976772132E+08
    0.180339186456E-01    0.228832479315E+06    0.644302374701E+00    0.147505479596E-12    0.171089663303E+06    0.175978370588E+08
    0.186245665027E-01    0.228833070279E+06    0.644301268685E+00    0.147373682021E-12    0.171089874547E+06    0.175979899244E+08
    0.192152143597E-01    0.228833616009E+06    0.644300247180E+00    0.147144690022E-12    0.171090066834E+06    0.175981363983E+08
    0.198058622167E-01    0.228834116236E+06    0.644299308660E+00    0.146821454333E-12    0.171090237736E+06    0.175982770291E+08
    0.203965100738E-01    0.228834570914E+06    0.644298451230E+00    0.146406844283E-12    0.171090385096E+06    0.175984123246E+08
    0.209871579308E-01    0.228834980214E+06    0.644297672642E+00    0.145903825710E-12    0.171090507055E+06    0.175985427485E+08
    0.215778057879E-01    0.228835344526E+06    0.644296970312E+00    0.145315304224E-12    0.171090602066E+06    0.175986687206E+08
    0.221684536449E-01    0.228835664437E+06    0.644296341341E+00    0.144644221699E-12    0.171090668897E+06    0.175987906151E+08
    0.227591015020E-01    0.228835940717E+06    0.644295782545E+00    0.143893441667E-12    0.171090706630E+06    0.175989087589E+08
    0.233497493590E-01    0.228836174290E+06    0.644295290481E+00    0.143065906274E-12    0.171090714653E+06    0.175990234308E+08
    0.239403972160E-01    0.228836366208E+06    0.644294861482E+00    0.142164508154E-12    0.171090692641E+06    0.175991348600E+08
    0.245310450731E-01    0.228836517620E+06    0.644294491693E+00    0.141192066101E-12    0.171090640542E+06    0.175992432249E+08
    0.251216929301E-01    0.228836629747E+06    0.644294177100E+00    0.140151445595E-12    0.171090558543E+06    0.175993486528E+08
    0.257123407872E-01    0.228836703849E+06    0.644293913572E+00    0.139045464420E-12    0.171090447055E+06    0.175994512197E+08
    0.263029886442E-01    0.228836741203E+06    0.644293696891E+00    0.137876901148E-12    0.171090306675E+06    0.175995509515E+08
    0.268936365013E-01    0.228836743083E+06    0.644293522788E+00    0.136648542688E-12    0.171090138165E+06    0.175996478253E+08
    0.274842843583E-01    0.228836710741E+06    0.644293386972E+00    0.135363057109E-12    0.171089942420E+06    0.175997417722E+08
    0.280749322154E-01    0.228836645394E+06    0.644293285164E+00    0.134023184294E-12    0.171089720446E+06    0.175998326814E+08
    0.286655800724E-01    0.228836548220E+06    0.644293213117E+00    0.132631594854E-12    0.171089473330E+06    0.175999204040E+08
    0.292562279294E-01    0.228836420351E+06    0.644293166645E+00    0.131190909014E-12    0.171089202226E+06    0.176000047593E+08
    0.298468757865E-01    0.228836262873E+06    0.644293141643E+00    0.129703679761E-12    0.171088908327E+06    0.176000855403E+08
    0.304375236435E-01    0.228836076834E+06    0.644293134105E+00    0.128172479928E-12    0.171088592858E+06    0.176001625208E+08
    0.310281715006E-01    0.228835863243E+06    0.644293140136E+00    0.126599752483E-12    0.171088257054E+06    0.176002354622E+08
    0.316188193576E-01    0.228835623087E+06    0.644293155969E+00    0.124987988443E-12    0.171087902156E+06    0.176003041208E+08
    0.322094672147E-01    0.228835357331E+06    0.644293177971E+00    0.123339595767E-12    0.171087529398E+06    0.176003682552E+08
    0.328001150717E-01    0.228835066936E+06    0.644293202652E+00    0.121656940069E-12    0.171087140001E+06    0.176004276327E+08
    0.333907629287E-01    0.228834752862E+06    0.644293226672E+00    0.119942301220E-12    0.171086735173E+06    0.176004820359E+08
    0.339814107858E-01    0.228834416079E+06    0.644293246840E+00    0.118197939651E-12    0.171086316099E+06    0.176005312688E+08
    0.345720586428E-01    0.228834057576E+06    0.644293260120E+00    0.116426095644E-12    0.171085883945E+06    0.176005751614E+08
    0.351627064999E-01    0.228833678365E+06    0.644293263631E+00    0.114628933051E-12    0.171085439856E+06    0.176006135744E+08
    0.357533543569E-01    0.228833279483E+06    0.644293254647E+00    0.112808555543E-12    0.171084984953E+06    0.176006464024E+08
    0.363440022140E-01    0.228832862003E+06    0.644293230594E+00    0.110967005524E-12    0.171084520337E+06    0.176006735761E+08
    0.369346500710E-01    0.228832427024E+06    0.644293189055E+00    0.109106252201E-12    0.171084047085E+06    0.176006950642E+08
    0.375252979280E-01    0.228831975680E+06    0.644293127761E+00    0.107228273859E-12    0.171083566254E+06    0.176007108738E+08
    0.381159457851E-01    0.228831509133E+06    0.644293044597E+00    0.105335003493E-12    0.171083078881E+06    0.176007210502E+08
    0.387065936421E-01    0.228831028568E+06    0.644292937597E+00    0.103428247685E-12    0.171082585979E+06    0.176007256761E+08
    0.392972414992E-01    0.228830535196E+06    0.644292804944E+00    0.101509776220E-12    0.171082088543E+06    0.176007248698E+08
    0.398878893562E-01    0.228830030244E+06    0.644292644971E+00    0.995813863815E-13    0.171081587543E+06    0.176007187831E+08
    0.404785372133E-01    0.228829514952E+06    0.644292456156E+00    0.976447372706E-13    0.171081083928E+06    0.176007075990E+08
    0.410691850703E-01    0.228828990568E+06    0.644292237131E+00    0.957014463914E-13    0.171080578625E+06    0.176006915280E+08
    0.416598329273E-01    0.228828458341E+06    0.644291986670E+00    0.937530940941E-13    0.171080072535E+06    0.176006708058E+08
    0.422504807844E-01    0.228827919520E+06    0.644291703703E+00    0.918012011421E-13    0.171079566535E+06    0.176006456894E+08
    0.428411286414E-01    0.228827375347E+06    0.644291387305E+00    0.898471951356E-13    0.171079061476E+06    0.176006164539E+08
    0.434317764985E-01    0.228826827053E+06    0.644291036705E+00    0.878925772270E-13    0.171078558180E+06    0.176005833895E+08
    0.440224243555E-01    0.228826275857E+06    0.644290651281E+00    0.859386688268E-13    0.171078057444E+06    0.176005467975E+08
    0.446130722126E-01    0.228825722957E+06    0.644290230566E+00    0.839867976998E-13    0.171077560034E+06    0.176005069882E+08
    0.452037200696E-01    0.228825169534E+06    0.644289774242E+00    0.820382188261E-13    0.171077066685E+06    0.176004642771E+08
    0.457943679267E-01    0.228824616744E+06    0.644289282148E+00    0.800941511333E-13    0.171076578103E+06    0.176004189827E+08
    0.463850157837E-01    0.228824065716E+06    0.644288754273E+00    0.781557248395E-13    0.171076094962E+06    0.176003714240E+08
    0.469756636407E-01    0.228823517551E+06    0.644288190758E+00    0.762240745001E-13    0.171075617901E+06    0.176003219178E+08
    0.475663114978E-01    0.228822973320E+06    0.644287591895E+00    0.743003000393E-13    0.171075147529E+06    0.176002707772E+08
    0.481569593548E-01    0.228822434057E+06    0.644286958127E+00    0.723853421619E-13    0.171074684417E+06    0.176002183094E+08
    0.487476072119E-01    0.228821900759E+06    0.644286290040E+00    0.704801785147E-13    0.171074229103E+06    0.176001648142E+08
    0.493382550689E-01    0.228821374383E+06    0.644285588366E+00    0.685858076932E-13    0.171073782088E+06    0.176001105823E+08
    0.499289029260E-01    0.228820855840E+06    0.644284853974E+00    0.667030465496E-13    0.171073343833E+06    0.176000558946E+08
    0.505195507830E-01    0.228820345994E+06    0.644284087870E+00    0.648327525680E-13    0.171072914763E+06    0.176000010201E+08
    0.511101986400E-01    0.228819845653E+06    0.644283291188E+00    0.629757282996E-13    0.171072495260E+06    0.175999462159E+08
    0.517008464971E-01    0.228819355571E+06    0.644282465183E+00    0.611326603278E-13    0.171072085666E+06    0.175998917255E+08
    0.522914943541E-01    0.228818876438E+06    0.644281611229E+00    0.593042547347E-13    0.171071686277E+06    0.175998377785E+08
    0.528821422112E-01    0.228818408877E+06    0.644280730804E+00    0.574912099736E-13    0.171071297345E+06    0.175997845899E+08
    0.534727900682E-01    0.228817953441E+06    0.644279825490E+00    0.556941524784E-13    0.171070919076E+06    0.175997323593E+08
    0.540634379253E-01    0.228817510609E+06    0.644278896954E+00    0.539136427898E-13    0.171070551624E+06    0.175996812706E+08
    0.546540857823E-01    0.228817080777E+06    0.644277946948E+00    0.521501810790E-13    0.171070195096E+06    0.175996314916E+08
    0.552447336393E-01    0.228816664261E+06    0.644276977289E+00    0.504043147012E-13    0.171069849546E+06    0.175995831737E+08
    0.558353814964E-01    0.228816261290E+06    0.644275989858E+00    0.486764977413E-13    0.171069514976E+06    0.175995364517E+08
    0.564260293534E-01    0.228815872004E+06    0.644274986579E+00    0.469671505971E-13    0.171069191332E+06    0.175994914440E+08
    0.570166772105E-01    0.228815496452E+06    0.644273969416E+00    0.452766870611E-13    0.171068878509E+06    0.175994482520E+08
    0.576073250675E-01    0.228815134592E+06    0.644272940355E+00    0.436054641023E-13    0.171068576344E+06    0.175994069608E+08
    0.581979729246E-01    0.228814786292E+06    0.644271901393E+00    0.419537880902E-13    0.171068284620E+06    0.175993676391E+08
    0.587886207816E-01    0.228814451327E+06    0.644270854532E+00    0.403219823069E-13    0.171068003068E+06    0.175993303395E+08
    0.593792686386E-01    0.228814129382E+06    0.644269801757E+00    0.387103054874E-13    0.171067731362E+06    0.175992950989E+08
    0.599699164957E-01    0.228813820058E+06    0.644268745032E+00    0.371190043565E-13    0.171067469128E+06    0.175992619393E+08
    0.605605643527E-01    0.228813522868E+06    0.644267686286E+00    0.355482978919E-13    0.171067215939E+06    0.175992308674E+08
    0.611512122098E-01    0.228813237248E+06    0.644266627403E+00    0.339983551187E-13    0.171066971322E+06    0.175992018765E+08
    0.617418600668E-01    0.228812962558E+06    0.644265570206E+00    0.324693316841E-13    0.171066734759E+06    0.175991749459E+08
    0.623325079239E-01    0.228812698089E+06    0.644264516455E+00    0.309613599451E-13    0.171066505691E+06    0.175991500427E+08
    0.629231557809E-01    0.228812443068E+06    0.644263467831E+00    0.294745501653E-13    0.171066283519E+06    0.175991271216E+08
    0.635138036380E-01    0.228812196665E+06    0.644262425931E+00    0.280089928983E-13    0.171066067613E+06    0.175991061266E+08
    0.641044514950E-01    0.228811958002E+06    0.644261392258E+00    0.265647440523E-13    0.171065857313E+06    0.175990869912E+08
    0.646950993520E-01    0.228811726156E+06    0.644260368213E+00    0.251418269935E-13    0.171065651933E+06    0.175990696394E+08
    0.652857472091E-01    0.228811500171E+06    0.644259355090E+00    0.237402736264E-13    0.171065450769E+06    0.175990539868E+08
    0.658763950661E-01    0.228811279065E+06    0.644258354071E+00    0.223601229470E-13    0.171065253103E+06    0.175990399410E+08
    0.664670429232E-01    0.228811061834E+06    0.644257366221E+00    0.210013578637E-13    0.171065058204E+06    0.175990274031E+08
    0.670576907802E-01    0.228810847468E+06    0.644256392482E+00    0.196639563645E-13    0.171064865340E+06    0.175990162679E+08
    0.676483386373E-01    0.228810634949E+06    0.644255433675E+00    0.183478138070E-13    0.171064673779E+06    0.175990064252E+08
    0.682389864943E-01    0.228810423267E+06    0.644254490495E+00    0.170528769367E-13    0.171064482796E+06    0.175989977604E+08
    0.688296343513E-01    0.228810211422E+06    0.644253563509E+00    0.157790983916E-13    0.171064291674E+06    0.175989901555E+08
    0.694202822084E-01    0.228809998434E+06    0.644252653163E+00    0.145263833289E-13    0.171064099717E+06    0.175989834897E+08
    0.700109300654E-01    0.228809783350E+06    0.644251759774E+00    0.132946594693E-13    0.171063906247E+06    0.175989776401E+08
    0.706015779225E-01    0.228809565247E+06    0.644250883540E+00    0.120837851673E-13    0.171063710609E+06    0.175989724828E+08
    0.711922257795E-01    0.228809343241E+06    0.644250024537E+00    0.108937010797E-13    0.171063512181E+06    0.175989678934E+08
    0.717828736366E-01    0.228809116491E+06    0.644249182729E+00    0.972424746944E-14    0.171063310373E+06    0.175989637476E+08
    0.723735214936E-01    0.228808884207E+06    0.644248357964E+00    0.857526134634E-14    0.171063104629E+06    0.175989599221E+08
    0.729641693506E-01    0.228808645647E+06    0.644247549986E+00    0.744663392686E-14    0.171062894435E+06    0.175989562951E+08
    0.735548172077E-01    0.228808400130E+06    0.644246758440E+00    0.633819722210E-14    0.171062679317E+06    0.175989527468E+08
    0.741454650647E-01    0.228808147032E+06    0.644245982873E+00    0.524978579834E-14    0.171062458846E+06    0.175989491606E+08
    0.747361129218E-01    0.228807885791E+06    0.644245222747E+00    0.418128375616E-14    0.171062232639E+06    0.175989454228E+08
    0.753267607788E-01    0.228807615911E+06    0.644244477439E+00    0.313253329257E-14    0.171062000361E+06    0.175989414238E+08
    0.759174086359E-01    0.228807336962E+06    0.644243746257E+00    0.210333009359E-14    0.171061761722E+06    0.175989370585E+08
    0.765080564929E-01    0.228807048578E+06    0.644243028440E+00    0.109350995806E-14    0.171061516483E+06    0.175989322265E+08
    0.770987043499E-01    0.228806750464E+06    0.644242323167E+00    0.102908920496E-15    0.171061264455E+06    0.175989268330E+08
    0.776893522070E-01    0.228806442390E+06    0.644241629569E+00   -0.868639005959E-15    0.171061005494E+06    0.175989207888E+08
    0.782800000640E-01    0.228806124193E+06    0.644240946731E+00   -0.182129656675E-14    0.171060739508E+06    0.175989140110E+08
    0.788706479211E-01    0.228805795774E+06    0.644240273706E+00   -0.275525115350E-14    0.171060466447E+06    0.175989064232E+08
    0.794612957781E-01    0.228805457102E+06    0.644239609514E+00   -0.367070991825E-14    0.171060186312E+06    0.175988979560E+08
    0.800519436352E-01    0.228805108204E+06    0.644238953159E+00   -0.456777689330E-14    0.171059899145E+06    0.175988885467E+08
    0.806425914922E-01    0.228804749171E+06    0.644238303630E+00   -0.544669889687E-14    0.171059605031E+06    0.175988781405E+08
    0.812332393493E-01    0.228804380147E+06    0.644237659910E+00   -0.630760013520E-14    0.171059304095E+06    0.175988666898E+08
    0.818238872063E-01    0.228804001335E+06    0.644237020983E+00   -0.715062673106E-14    0.171058996501E+06    0.175988541547E+08
    0.824145350633E-01    0.228803612987E+06    0.644236385840E+00   -0.797600959937E-14    0.171058682448E+06    0.175988405030E+08
    0.830051829204E-01    0.228803215404E+06    0.644235753485E+00   -0.878386515460E-14    0.171058362167E+06    0.175988257106E+08
    0.835958307774E-01    0.228802808932E+06    0.644235122940E+00   -0.957437546245E-14    0.171058035922E+06    0.175988097607E+08
    0.841864786345E-01    0.228802393957E+06    0.644234493254E+00   -0.103476604682E-13    0.171057704003E+06    0.175987926446E+08
    0.847771264915E-01    0.228801970904E+06    0.644233863504E+00   -0.111039320086E-13    0.171057366724E+06    0.175987743610E+08
    0.853677743486E-01    0.228801540230E+06    0.644233232800E+00   -0.118433325546E-13    0.171057024424E+06    0.175987549163E+08
    0.859584222056E-01    0.228801102425E+06    0.644232600291E+00   -0.125660248698E-13    0.171056677457E+06    0.175987343238E+08
    0.865490700626E-01    0.228800658000E+06    0.644231965168E+00   -0.132721306327E-13    0.171056326197E+06    0.175987126040E+08
