#       Time            Kinetic Energy      Thermal energy      Top heat flux      Bottom heat flux      Axisymmetric KE          Edis      
  0.000000000000E+00  0.112259803716E+05  0.000000000000E+00  0.139778197488E+02  0.139782467356E+02  0.101092907009E+04  0.103060267175E+07
  0.459265755232E-05  0.112259824390E+05  0.000000000000E+00  0.139778198236E+02  0.139782479224E+02  0.101092905653E+04  0.103061433022E+07
  0.314482934319E-03  0.112261883528E+05  0.000000000000E+00  0.139778223649E+02  0.139782500879E+02  0.101092404443E+04  0.103063448152E+07
  0.905130791362E-03  0.112265678843E+05  0.000000000000E+00  0.139778322700E+02  0.139782717414E+02  0.101091889285E+04  0.103067439304E+07
  0.149577864841E-02  0.112268852312E+05  0.000000000000E+00  0.139778455414E+02  0.139783028154E+02  0.101090645378E+04  0.103071309750E+07
  0.208642650545E-02  0.112273290222E+05  0.000000000000E+00  0.139778670287E+02  0.139783543584E+02  0.101090150352E+04  0.103075469930E+07
  0.267707436249E-02  0.112277481342E+05  0.000000000000E+00  0.139778959627E+02  0.139784207544E+02  0.101089787177E+04  0.103079693544E+07
  0.326772221954E-02  0.112281581570E+05  0.000000000000E+00  0.139779321087E+02  0.139784953837E+02  0.101089612367E+04  0.103083743816E+07
  0.385837007658E-02  0.112285802526E+05  0.000000000000E+00  0.139779750829E+02  0.139785768748E+02  0.101090323476E+04  0.103087682002E+07
  0.444901793362E-02  0.112289782040E+05  0.000000000000E+00  0.139780239815E+02  0.139786641363E+02  0.101091378113E+04  0.103091545252E+07
  0.503966579067E-02  0.112293589207E+05  0.000000000000E+00  0.139780786025E+02  0.139787542198E+02  0.101092924520E+04  0.103095255870E+07
  0.563031364771E-02  0.112297139992E+05  0.000000000000E+00  0.139781380744E+02  0.139788453115E+02  0.101094993492E+04  0.103098696421E+07
  0.622096150475E-02  0.112300477547E+05  0.000000000000E+00  0.139782019085E+02  0.139789360648E+02  0.101097344260E+04  0.103101953148E+07
  0.681160936179E-02  0.112303561848E+05  0.000000000000E+00  0.139782695625E+02  0.139790250026E+02  0.101099952756E+04  0.103105001283E+07
  0.740225721884E-02  0.112306429296E+05  0.000000000000E+00  0.139783404319E+02  0.139791111128E+02  0.101102766434E+04  0.103107821943E+07
  0.799290507588E-02  0.112309073973E+05  0.000000000000E+00  0.139784139473E+02  0.139791935664E+02  0.101105646078E+04  0.103110433373E+07
  0.858355293292E-02  0.112311508615E+05  0.000000000000E+00  0.139784895381E+02  0.139792716201E+02  0.101108605273E+04  0.103112828442E+07
  0.917420078997E-02  0.112313746932E+05  0.000000000000E+00  0.139785666606E+02  0.139793447612E+02  0.101111581477E+04  0.103115017772E+07
  0.976484864701E-02  0.112315797232E+05  0.000000000000E+00  0.139786447799E+02  0.139794125791E+02  0.101114543322E+04  0.103117005454E+07
  0.103554965041E-01  0.112317677646E+05  0.000000000000E+00  0.139787234263E+02  0.139794748127E+02  0.101117509297E+04  0.103118805826E+07
  0.109461443611E-01  0.112319398230E+05  0.000000000000E+00  0.139788021465E+02  0.139795313459E+02  0.101120456659E+04  0.103120426860E+07
  0.115367922181E-01  0.112320974642E+05  0.000000000000E+00  0.139788805413E+02  0.139795821907E+02  0.101123395946E+04  0.103121881754E+07
  0.121274400752E-01  0.112322420453E+05  0.000000000000E+00  0.139789582485E+02  0.139796274810E+02  0.101126341234E+04  0.103123184907E+07
  0.127180879322E-01  0.112323748301E+05  0.000000000000E+00  0.139790349336E+02  0.139796674587E+02  0.101129289524E+04  0.103124349451E+07
  0.133087357893E-01  0.112324972137E+05  0.000000000000E+00  0.139791102993E+02  0.139797024566E+02  0.101132254574E+04  0.103125390002E+07
  0.138993836463E-01  0.112326104325E+05  0.000000000000E+00  0.139791840701E+02  0.139797328738E+02  0.101135240036E+04  0.103126321077E+07
  0.144900315034E-01  0.112327156991E+05  0.000000000000E+00  0.139792559948E+02  0.139797591666E+02  0.101138243974E+04  0.103127156898E+07
  0.150806793604E-01  0.112328142144E+05  0.000000000000E+00  0.139793258451E+02  0.139797818181E+02  0.101141269644E+04  0.103127911452E+07
  0.156713272174E-01  0.112329070741E+05  0.000000000000E+00  0.139793934127E+02  0.139798013234E+02  0.101144311543E+04  0.103128598459E+07
  0.162619750745E-01  0.112329953226E+05  0.000000000000E+00  0.139794585116E+02  0.139798181804E+02  0.101147364092E+04  0.103129230688E+07
  0.168526229315E-01  0.112330799495E+05  0.000000000000E+00  0.139795209799E+02  0.139798328661E+02  0.101150422173E+04  0.103129820335E+07
  0.174432707886E-01  0.112331618407E+05  0.000000000000E+00  0.139795806812E+02  0.139798458354E+02  0.101153476615E+04  0.103130378713E+07
  0.180339186456E-01  0.112332418247E+05  0.000000000000E+00  0.139796375077E+02  0.139798575064E+02  0.101156520003E+04  0.103130916146E+07
  0.186245665027E-01  0.112333206473E+05  0.000000000000E+00  0.139796913826E+02  0.139798682571E+02  0.101159544725E+04  0.103131442084E+07
  0.192152143597E-01  0.112333989647E+05  0.000000000000E+00  0.139797422613E+02  0.139798784219E+02  0.101162542551E+04  0.103131964924E+07
  0.198058622167E-01  0.112334773631E+05  0.000000000000E+00  0.139797901330E+02  0.139798882891E+02  0.101165507105E+04  0.103132492080E+07
  0.203965100738E-01  0.112335563386E+05  0.000000000000E+00  0.139798350204E+02  0.139798981054E+02  0.101168432129E+04  0.103133029977E+07
  0.209871579308E-01  0.112336363035E+05  0.000000000000E+00  0.139798769785E+02  0.139799080719E+02  0.101171312119E+04  0.103133584013E+07
  0.215778057879E-01  0.112337175884E+05  0.000000000000E+00  0.139799160922E+02  0.139799183508E+02  0.101174142817E+04  0.103134158606E+07
  0.221684536449E-01  0.112338004338E+05  0.000000000000E+00  0.139799524734E+02  0.139799290682E+02  0.101176920207E+04  0.103134757186E+07
  0.227591015020E-01  0.112338849956E+05  0.000000000000E+00  0.139799862565E+02  0.139799403227E+02  0.101179641009E+04  0.103135382205E+07
  0.233497493590E-01  0.112339713449E+05  0.000000000000E+00  0.139800175937E+02  0.139799521801E+02  0.101182302440E+04  0.103136035179E+07
  0.239403972160E-01  0.112340594674E+05  0.000000000000E+00  0.139800466499E+02  0.139799646858E+02  0.101184901779E+04  0.103136716702E+07
  0.245310450731E-01  0.112341492697E+05  0.000000000000E+00  0.139800735973E+02  0.139799778671E+02  0.101187436578E+04  0.103137426485E+07
  0.251216929301E-01  0.112342405823E+05  0.000000000000E+00  0.139800986104E+02  0.139799917350E+02  0.101189904350E+04  0.103138163416E+07
  0.257123407872E-01  0.112343331648E+05  0.000000000000E+00  0.139801218607E+02  0.139800062863E+02  0.101192302464E+04  0.103138925607E+07
  0.263029886442E-01  0.112344267145E+05  0.000000000000E+00  0.139801435129E+02  0.139800215088E+02  0.101194628214E+04  0.103139710462E+07
  0.268936365013E-01  0.112345208733E+05  0.000000000000E+00  0.139801637206E+02  0.139800373798E+02  0.101196878666E+04  0.103140514761E+07
  0.274842843583E-01  0.112346152371E+05  0.000000000000E+00  0.139801826235E+02  0.139800538709E+02  0.101199050710E+04  0.103141334736E+07
  0.280749322154E-01  0.112347093655E+05  0.000000000000E+00  0.139802003454E+02  0.139800709447E+02  0.101201141115E+04  0.103142166166E+07
  0.286655800724E-01  0.112348027921E+05  0.000000000000E+00  0.139802169925E+02  0.139800885573E+02  0.101203146530E+04  0.103143004476E+07
  0.292562279294E-01  0.112348950349E+05  0.000000000000E+00  0.139802326530E+02  0.139801066604E+02  0.101205063601E+04  0.103143844829E+07
  0.298468757865E-01  0.112349856066E+05  0.000000000000E+00  0.139802473974E+02  0.139801251975E+02  0.101206889046E+04  0.103144682236E+07
  0.304375236435E-01  0.112350740244E+05  0.000000000000E+00  0.139802612791E+02  0.139801441075E+02  0.101208619736E+04  0.103145511651E+07
  0.310281715006E-01  0.112351598202E+05  0.000000000000E+00  0.139802743355E+02  0.139801633262E+02  0.101210252813E+04  0.103146328067E+07
  0.316188193576E-01  0.112352425490E+05  0.000000000000E+00  0.139802865904E+02  0.139801827782E+02  0.101211785773E+04  0.103147126612E+07
  0.322094672147E-01  0.112353217967E+05  0.000000000000E+00  0.139802980555E+02  0.139802023898E+02  0.101213216551E+04  0.103147902630E+07
  0.328001150717E-01  0.112353971875E+05  0.000000000000E+00  0.139803087330E+02  0.139802220787E+02  0.101214543604E+04  0.103148651761E+07
  0.333907629287E-01  0.112354683891E+05  0.000000000000E+00  0.139803186176E+02  0.139802417620E+02  0.101215765969E+04  0.103149370007E+07
  0.339814107858E-01  0.112355351173E+05  0.000000000000E+00  0.139803276994E+02  0.139802613525E+02  0.101216883309E+04  0.103150053784E+07
  0.345720586428E-01  0.112355971396E+05  0.000000000000E+00  0.139803359652E+02  0.139802807672E+02  0.101217895949E+04  0.103150699972E+07
  0.351627064999E-01  0.112356542765E+05  0.000000000000E+00  0.139803434014E+02  0.139802999175E+02  0.101218804884E+04  0.103151305944E+07
  0.357533543569E-01  0.112357064031E+05  0.000000000000E+00  0.139803499951E+02  0.139803187207E+02  0.101219611777E+04  0.103151869583E+07
  0.363440022140E-01  0.112357534481E+05  0.000000000000E+00  0.139803557360E+02  0.139803370948E+02  0.101220318945E+04  0.103152389300E+07
  0.369346500710E-01  0.112357953926E+05  0.000000000000E+00  0.139803606172E+02  0.139803549654E+02  0.101220929322E+04  0.103152864022E+07
  0.375252979280E-01  0.112358322680E+05  0.000000000000E+00  0.139803646366E+02  0.139803722627E+02  0.101221446418E+04  0.103153293185E+07
  0.381159457851E-01  0.112358641527E+05  0.000000000000E+00  0.139803677971E+02  0.139803889217E+02  0.101221874263E+04  0.103153676713E+07
  0.387065936421E-01  0.112358911682E+05  0.000000000000E+00  0.139803701069E+02  0.139804048890E+02  0.101222217344E+04  0.103154014985E+07
  0.392972414992E-01  0.112359134754E+05  0.000000000000E+00  0.139803715799E+02  0.139804201168E+02  0.101222480541E+04  0.103154308807E+07
  0.398878893562E-01  0.112359312692E+05  0.000000000000E+00  0.139803722357E+02  0.139804345659E+02  0.101222669050E+04  0.103154559363E+07
  0.404785372133E-01  0.112359447742E+05  0.000000000000E+00  0.139803720989E+02  0.139804482105E+02  0.101222788315E+04  0.103154768176E+07
  0.410691850703E-01  0.112359542395E+05  0.000000000000E+00  0.139803711990E+02  0.139804610290E+02  0.101222843954E+04  0.103154937061E+07
  0.416598329273E-01  0.112359599336E+05  0.000000000000E+00  0.139803695699E+02  0.139804730113E+02  0.101222841686E+04  0.103155068078E+07
  0.422504807844E-01  0.112359621396E+05  0.000000000000E+00  0.139803672496E+02  0.139804841563E+02  0.101222787265E+04  0.103155163480E+07
  0.428411286414E-01  0.112359611506E+05  0.000000000000E+00  0.139803642793E+02  0.139804944691E+02  0.101222686420E+04  0.103155225670E+07
  0.434317764985E-01  0.112359572647E+05  0.000000000000E+00  0.139803607030E+02  0.139805039652E+02  0.101222544791E+04  0.103155257155E+07
  0.440224243555E-01  0.112359507814E+05  0.000000000000E+00  0.139803565673E+02  0.139805126614E+02  0.101222367881E+04  0.103155260505E+07
  0.446130722126E-01  0.112359419974E+05  0.000000000000E+00  0.139803519205E+02  0.139805205866E+02  0.101222161009E+04  0.103155238308E+07
  0.452037200696E-01  0.112359312035E+05  0.000000000000E+00  0.139803468123E+02  0.139805277681E+02  0.101221929270E+04  0.103155193140E+07
  0.457943679267E-01  0.112359186810E+05  0.000000000000E+00  0.139803412935E+02  0.139805342402E+02  0.101221677499E+04  0.103155127530E+07
  0.463850157837E-01  0.112359046995E+05  0.000000000000E+00  0.139803354156E+02  0.139805400409E+02  0.101221410248E+04  0.103155043931E+07
  0.469756636407E-01  0.112358895146E+05  0.000000000000E+00  0.139803292305E+02  0.139805452060E+02  0.101221131761E+04  0.103154944699E+07
  0.475663114978E-01  0.112358733661E+05  0.000000000000E+00  0.139803227904E+02  0.139805497748E+02  0.101220845959E+04  0.103154832068E+07
  0.481569593548E-01  0.112358564761E+05  0.000000000000E+00  0.139803161470E+02  0.139805537875E+02  0.101220556427E+04  0.103154708138E+07
  0.487476072119E-01  0.112358390488E+05  0.000000000000E+00  0.139803093519E+02  0.139805572815E+02  0.101220266411E+04  0.103154574860E+07
  0.493382550689E-01  0.112358212690E+05  0.000000000000E+00  0.139803024562E+02  0.139805602931E+02  0.101219978815E+04  0.103154434028E+07
  0.499289029260E-01  0.112358033022E+05  0.000000000000E+00  0.139802955100E+02  0.139805628574E+02  0.101219696200E+04  0.103154287273E+07
  0.505195507830E-01  0.112357852942E+05  0.000000000000E+00  0.139802885625E+02  0.139805650074E+02  0.101219420795E+04  0.103154136060E+07
  0.511101986400E-01  0.112357673719E+05  0.000000000000E+00  0.139802816618E+02  0.139805667733E+02  0.101219154500E+04  0.103153981693E+07
  0.517008464971E-01  0.112357496430E+05  0.000000000000E+00  0.139802748542E+02  0.139805681820E+02  0.101218898901E+04  0.103153825308E+07
  0.522914943541E-01  0.112357321971E+05  0.000000000000E+00  0.139802681847E+02  0.139805692592E+02  0.101218655280E+04  0.103153667888E+07
  0.528821422112E-01  0.112357151066E+05  0.000000000000E+00  0.139802616959E+02  0.139805700255E+02  0.101218424635E+04  0.103153510266E+07
  0.534727900682E-01  0.112356984278E+05  0.000000000000E+00  0.139802554285E+02  0.139805705006E+02  0.101218207692E+04  0.103153353129E+07
  0.540634379253E-01  0.112356822018E+05  0.000000000000E+00  0.139802494205E+02  0.139805707005E+02  0.101218004926E+04  0.103153197038E+07
  0.546540857823E-01  0.112356664559E+05  0.000000000000E+00  0.139802437074E+02  0.139805706376E+02  0.101217816580E+04  0.103153042429E+07
  0.552447336393E-01  0.112356512051E+05  0.000000000000E+00  0.139802383215E+02  0.139805703255E+02  0.101217642684E+04  0.103152889629E+07
  0.558353814964E-01  0.112356364534E+05  0.000000000000E+00  0.139802332919E+02  0.139805697723E+02  0.101217483075E+04  0.103152738870E+07
  0.564260293534E-01  0.112356221953E+05  0.000000000000E+00  0.139802286444E+02  0.139805689839E+02  0.101217337417E+04  0.103152590296E+07
  0.570166772105E-01  0.112356084169E+05  0.000000000000E+00  0.139802244010E+02  0.139805679667E+02  0.101217205225E+04  0.103152443982E+07
  0.576073250675E-01  0.112355950979E+05  0.000000000000E+00  0.139802205803E+02  0.139805667253E+02  0.101217085878E+04  0.103152299940E+07
  0.581979729246E-01  0.112355822124E+05  0.000000000000E+00  0.139802171968E+02  0.139805652615E+02  0.101216978642E+04  0.103152158134E+07
  0.587886207816E-01  0.112355697307E+05  0.000000000000E+00  0.139802142611E+02  0.139805635773E+02  0.101216882689E+04  0.103152018494E+07
  0.593792686386E-01  0.112355576199E+05  0.000000000000E+00  0.139802117799E+02  0.139805616761E+02  0.101216797111E+04  0.103151880918E+07
  0.599699164957E-01  0.112355458458E+05  0.000000000000E+00  0.139802097561E+02  0.139805595587E+02  0.101216720940E+04  0.103151745291E+07
  0.605605643527E-01  0.112355343731E+05  0.000000000000E+00  0.139802081887E+02  0.139805572253E+02  0.101216653159E+04  0.103151611490E+07
  0.611512122098E-01  0.112355231667E+05  0.000000000000E+00  0.139802070729E+02  0.139805546779E+02  0.101216592719E+04  0.103151479387E+07
  0.617418600668E-01  0.112355121927E+05  0.000000000000E+00  0.139802064002E+02  0.139805519184E+02  0.101216538548E+04  0.103151348864E+07
  0.623325079239E-01  0.112355014184E+05  0.000000000000E+00  0.139802061589E+02  0.139805489476E+02  0.101216489562E+04  0.103151219813E+07
  0.629231557809E-01  0.112354908132E+05  0.000000000000E+00  0.139802063340E+02  0.139805457693E+02  0.101216444677E+04  0.103151092137E+07
  0.635138036380E-01  0.112354803491E+05  0.000000000000E+00  0.139802069075E+02  0.139805423874E+02  0.101216402812E+04  0.103150965763E+07
  0.641044514950E-01  0.112354700005E+05  0.000000000000E+00  0.139802078585E+02  0.139805388056E+02  0.101216362901E+04  0.103150840632E+07
  0.646950993520E-01  0.112354597447E+05  0.000000000000E+00  0.139802091638E+02  0.139805350290E+02  0.101216323892E+04  0.103150716708E+07
  0.652857472091E-01  0.112354495617E+05  0.000000000000E+00  0.139802107981E+02  0.139805310633E+02  0.101216284755E+04  0.103150593973E+07
  0.658763950661E-01  0.112354394344E+05  0.000000000000E+00  0.139802127341E+02  0.139805269164E+02  0.101216244485E+04  0.103150472428E+07
  0.664670429232E-01  0.112354293480E+05  0.000000000000E+00  0.139802149429E+02  0.139805225956E+02  0.101216202100E+04  0.103150352091E+07
  0.670576907802E-01  0.112354192901E+05  0.000000000000E+00  0.139802173943E+02  0.139805181092E+02  0.101216156646E+04  0.103150232992E+07
  0.676483386373E-01  0.112354092504E+05  0.000000000000E+00  0.139802200571E+02  0.139805134690E+02  0.101216107197E+04  0.103150115171E+07
  0.682389864943E-01  0.112353992203E+05  0.000000000000E+00  0.139802228994E+02  0.139805086824E+02  0.101216052852E+04  0.103149998676E+07
  0.688296343513E-01  0.112353891922E+05  0.000000000000E+00  0.139802258888E+02  0.139805037634E+02  0.101215992739E+04  0.103149883556E+07
  0.694202822084E-01  0.112353791599E+05  0.000000000000E+00  0.139802289928E+02  0.139804987233E+02  0.101215926012E+04  0.103149769859E+07
  0.700109300654E-01  0.112353691174E+05  0.000000000000E+00  0.139802321787E+02  0.139804935741E+02  0.101215851850E+04  0.103149657626E+07
  0.706015779225E-01  0.112353590591E+05  0.000000000000E+00  0.139802354144E+02  0.139804883284E+02  0.101215769460E+04  0.103149546891E+07
  0.711922257795E-01  0.112353489793E+05  0.000000000000E+00  0.139802386681E+02  0.139804830002E+02  0.101215678073E+04  0.103149437672E+07
  0.717828736366E-01  0.112353388716E+05  0.000000000000E+00  0.139802419087E+02  0.139804776020E+02  0.101215576948E+04  0.103149329972E+07
  0.723735214936E-01  0.112353287292E+05  0.000000000000E+00  0.139802451060E+02  0.139804721478E+02  0.101215465368E+04  0.103149223775E+07
  0.729641693506E-01  0.112353185442E+05  0.000000000000E+00  0.139802482310E+02  0.139804666513E+02  0.101215342644E+04  0.103149119042E+07
  0.735548172077E-01  0.112353083076E+05  0.000000000000E+00  0.139802512555E+02  0.139804611242E+02  0.101215208119E+04  0.103149015711E+07
  0.741454650647E-01  0.112352980091E+05  0.000000000000E+00  0.139802541532E+02  0.139804555808E+02  0.101215061161E+04  0.103148913697E+07
  0.747361129218E-01  0.112352876375E+05  0.000000000000E+00  0.139802568987E+02  0.139804500310E+02  0.101214901175E+04  0.103148812887E+07
  0.753267607788E-01  0.112352771800E+05  0.000000000000E+00  0.139802594684E+02  0.139804444892E+02  0.101214727600E+04  0.103148713147E+07
  0.759174086359E-01  0.112352666228E+05  0.000000000000E+00  0.139802618404E+02  0.139804389647E+02  0.101214539913E+04  0.103148614316E+07
  0.765080564929E-01  0.112352559509E+05  0.000000000000E+00  0.139802639944E+02  0.139804334692E+02  0.101214337634E+04  0.103148516212E+07
  0.770987043499E-01  0.112352451485E+05  0.000000000000E+00  0.139802659120E+02  0.139804280101E+02  0.101214120325E+04  0.103148418632E+07
  0.776893522070E-01  0.112352341992E+05  0.000000000000E+00  0.139802675765E+02  0.139804225972E+02  0.101213887600E+04  0.103148321355E+07
  0.782800000640E-01  0.112352230860E+05  0.000000000000E+00  0.139802689731E+02  0.139804172386E+02  0.101213639124E+04  0.103148224145E+07
  0.788706479211E-01  0.112352117917E+05  0.000000000000E+00  0.139802700890E+02  0.139804119399E+02  0.101213374617E+04  0.103148126753E+07
  0.794612957781E-01  0.112352002995E+05  0.000000000000E+00  0.139802709132E+02  0.139804067085E+02  0.101213093861E+04  0.103148028923E+07
  0.800519436352E-01  0.112351885927E+05  0.000000000000E+00  0.139802714367E+02  0.139804015477E+02  0.101212796699E+04  0.103147930395E+07
  0.806425914922E-01  0.112351766556E+05  0.000000000000E+00  0.139802716524E+02  0.139803964619E+02  0.101212483039E+04  0.103147830906E+07
  0.812332393493E-01  0.112351644736E+05  0.000000000000E+00  0.139802715550E+02  0.139803914551E+02  0.101212152861E+04  0.103147730200E+07
