#       Time            Kinetic Energy      Thermal energy      Top heat flux      Bottom heat flux      Axisymmetric KE          Edis      
  0.000000000000E+00  0.419405475903E+06  0.948140702516E+01  0.758824575692E+01  0.758824883084E+01  0.602277811788E+05  0.375598862002E+08
  0.317248306330E-06  0.419405467073E+06  0.948140702520E+01  0.758824769347E+01  0.758825437142E+01  0.602277808225E+05  0.375598851816E+08
  0.951107867836E-05  0.419405303391E+06  0.948140702650E+01  0.758824764099E+01  0.758825356893E+01  0.602277728681E+05  0.375598667684E+08
  0.216690483938E-04  0.419405112493E+06  0.948140702819E+01  0.758824757361E+01  0.758825327445E+01  0.602277624876E+05  0.375598456003E+08
  0.338270181092E-04  0.419404927267E+06  0.948140702986E+01  0.758824750647E+01  0.758825289159E+01  0.602277516696E+05  0.375598251947E+08
  0.459849878246E-04  0.419404747466E+06  0.948140703149E+01  0.758824743991E+01  0.758825252002E+01  0.602277404759E+05  0.375598054627E+08
  0.581429575400E-04  0.419404572923E+06  0.948140703310E+01  0.758824737331E+01  0.758825210079E+01  0.602277289628E+05  0.375597863357E+08
  0.703009272554E-04  0.419404403517E+06  0.948140703468E+01  0.758824730623E+01  0.758825175631E+01  0.602277171780E+05  0.375597677618E+08
  0.824588969708E-04  0.419404239146E+06  0.948140703623E+01  0.758824723849E+01  0.758825135302E+01  0.602277051590E+05  0.375597497015E+08
  0.946168666862E-04  0.419404079702E+06  0.948140703775E+01  0.758824717012E+01  0.758825103746E+01  0.602276929327E+05  0.375597321248E+08
  0.106774836402E-03  0.419403925059E+06  0.948140703925E+01  0.758824710130E+01  0.758825061468E+01  0.602276805176E+05  0.375597150075E+08
  0.118932806117E-03  0.419403775068E+06  0.948140704071E+01  0.758824703225E+01  0.758825034288E+01  0.602276679255E+05  0.375596983296E+08
  0.131090775832E-03  0.419403629548E+06  0.948140704215E+01  0.758824696325E+01  0.758825001403E+01  0.602276551655E+05  0.375596820734E+08
  0.143248745548E-03  0.419403488291E+06  0.948140704356E+01  0.758824689455E+01  0.758824970642E+01  0.602276422465E+05  0.375596662222E+08
  0.155406715263E-03  0.419403351067E+06  0.948140704493E+01  0.758824682636E+01  0.758824940762E+01  0.602276291798E+05  0.375596507594E+08
  0.167564684979E-03  0.419403217623E+06  0.948140704628E+01  0.758824675888E+01  0.758824918157E+01  0.602276159803E+05  0.375596356682E+08
  0.179722654694E-03  0.419403087696E+06  0.948140704759E+01  0.758824669223E+01  0.758824887051E+01  0.602276026667E+05  0.375596209309E+08
  0.191880624410E-03  0.419402961016E+06  0.948140704887E+01  0.758824662652E+01  0.758824857611E+01  0.602275892604E+05  0.375596065298E+08
  0.204038594125E-03  0.419402837313E+06  0.948140705012E+01  0.758824656180E+01  0.758824834422E+01  0.602275757842E+05  0.375595924465E+08
  0.216196563840E-03  0.419402716327E+06  0.948140705133E+01  0.758824649809E+01  0.758824811995E+01  0.602275622604E+05  0.375595786629E+08
  0.228354533556E-03  0.419402597811E+06  0.948140705252E+01  0.758824643541E+01  0.758824783961E+01  0.602275487089E+05  0.375595651613E+08
  0.240512503271E-03  0.419402481536E+06  0.948140705367E+01  0.758824637375E+01  0.758824766967E+01  0.602275351468E+05  0.375595519250E+08
  0.252670472987E-03  0.419402367298E+06  0.948140705478E+01  0.758824631309E+01  0.758824746168E+01  0.602275215878E+05  0.375595389389E+08
  0.264828442702E-03  0.419402254915E+06  0.948140705587E+01  0.758824625343E+01  0.758824721567E+01  0.602275080423E+05  0.375595261891E+08
  0.276986412417E-03  0.419402144232E+06  0.948140705692E+01  0.758824619473E+01  0.758824698612E+01  0.602274945184E+05  0.375595136640E+08
  0.289144382133E-03  0.419402035121E+06  0.948140705793E+01  0.758824613700E+01  0.758824676277E+01  0.602274810228E+05  0.375595013533E+08
  0.301302351848E-03  0.419401927474E+06  0.948140705890E+01  0.758824608021E+01  0.758824662398E+01  0.602274675611E+05  0.375594892489E+08
  0.313460321564E-03  0.419401821205E+06  0.948140705984E+01  0.758824602437E+01  0.758824638867E+01  0.602274541392E+05  0.375594773437E+08
  0.325618291279E-03  0.419401716246E+06  0.948140706075E+01  0.758824596945E+01  0.758824620384E+01  0.602274407625E+05  0.375594656319E+08
  0.337776260994E-03  0.419401612541E+06  0.948140706161E+01  0.758824591545E+01  0.758824598029E+01  0.602274274361E+05  0.375594541087E+08
  0.349934230710E-03  0.419401510048E+06  0.948140706244E+01  0.758824586234E+01  0.758824579840E+01  0.602274141643E+05  0.375594427697E+08
  0.362092200425E-03  0.419401408733E+06  0.948140706322E+01  0.758824581012E+01  0.758824560819E+01  0.602274009506E+05  0.375594316113E+08
  0.374250170141E-03  0.419401308572E+06  0.948140706396E+01  0.758824575873E+01  0.758824551047E+01  0.602273877970E+05  0.375594206298E+08
  0.386408139856E-03  0.419401209545E+06  0.948140706467E+01  0.758824570814E+01  0.758824531222E+01  0.602273747041E+05  0.375594098224E+08
  0.398566109572E-03  0.419401111645E+06  0.948140706532E+01  0.758824565832E+01  0.758824517928E+01  0.602273616719E+05  0.375593991862E+08
  0.410724079287E-03  0.419401014867E+06  0.948140706594E+01  0.758824560919E+01  0.758824502491E+01  0.602273487002E+05  0.375593887189E+08
  0.422882049002E-03  0.419400919216E+06  0.948140706651E+01  0.758824556073E+01  0.758824487477E+01  0.602273357887E+05  0.375593784186E+08
  0.435040018718E-03  0.419400824702E+06  0.948140706703E+01  0.758824551286E+01  0.758824472933E+01  0.602273229380E+05  0.375593682839E+08
  0.447197988433E-03  0.419400731341E+06  0.948140706751E+01  0.758824546555E+01  0.758824455590E+01  0.602273101494E+05  0.375593583135E+08
  0.459355958149E-03  0.419400639152E+06  0.948140706794E+01  0.758824541873E+01  0.758824441593E+01  0.602272974249E+05  0.375593485065E+08
  0.471513927864E-03  0.419400548155E+06  0.948140706833E+01  0.758824537238E+01  0.758824420313E+01  0.602272847663E+05  0.375593388618E+08
  0.483671897579E-03  0.419400458369E+06  0.948140706866E+01  0.758824532644E+01  0.758824411450E+01  0.602272721753E+05  0.375593293785E+08
  0.495829867295E-03  0.419400369811E+06  0.948140706895E+01  0.758824528087E+01  0.758824401847E+01  0.602272596517E+05  0.375593200550E+08
  0.507987837010E-03  0.419400282492E+06  0.948140706919E+01  0.758824523565E+01  0.758824382277E+01  0.602272471940E+05  0.375593108899E+08
  0.520145806726E-03  0.419400196417E+06  0.948140706939E+01  0.758824519073E+01  0.758824367704E+01  0.602272347982E+05  0.375593018810E+08
  0.532303776441E-03  0.419400111589E+06  0.948140706953E+01  0.758824514609E+01  0.758824359902E+01  0.602272224587E+05  0.375592930260E+08
  0.544461746156E-03  0.419400028000E+06  0.948140706962E+01  0.758824510169E+01  0.758824344368E+01  0.602272101685E+05  0.375592843225E+08
  0.556619715872E-03  0.419399945643E+06  0.948140706967E+01  0.758824505750E+01  0.758824324442E+01  0.602271979202E+05  0.375592757680E+08
  0.568777685587E-03  0.419399864505E+06  0.948140706967E+01  0.758824501351E+01  0.758824317884E+01  0.602271857064E+05  0.375592673604E+08
  0.580935655303E-03  0.419399784571E+06  0.948140706962E+01  0.758824496969E+01  0.758824304024E+01  0.602271735214E+05  0.375592590979E+08
  0.593093625018E-03  0.419399705826E+06  0.948140706952E+01  0.758824492601E+01  0.758824297305E+01  0.602271613608E+05  0.375592509792E+08
  0.605251594734E-03  0.419399628253E+06  0.948140706937E+01  0.758824488245E+01  0.758824284278E+01  0.602271492218E+05  0.375592430034E+08
  0.617409564449E-03  0.419399551837E+06  0.948140706918E+01  0.758824483901E+01  0.758824268828E+01  0.602271371033E+05  0.375592351701E+08
  0.629567534164E-03  0.419399476561E+06  0.948140706894E+01  0.758824479567E+01  0.758824260399E+01  0.602271250046E+05  0.375592274792E+08
  0.641725503880E-03  0.419399402407E+06  0.948140706866E+01  0.758824475242E+01  0.758824249764E+01  0.602271129246E+05  0.375592199305E+08
  0.653883473595E-03  0.419399329359E+06  0.948140706832E+01  0.758824470923E+01  0.758824239277E+01  0.602271008610E+05  0.375592125238E+08
  0.666041443311E-03  0.419399257397E+06  0.948140706795E+01  0.758824466611E+01  0.758824229512E+01  0.602270888095E+05  0.375592052584E+08
  0.678199413026E-03  0.419399186500E+06  0.948140706753E+01  0.758824462304E+01  0.758824220215E+01  0.602270767630E+05  0.375591981329E+08
  0.690357382741E-03  0.419399116648E+06  0.948140706706E+01  0.758824457999E+01  0.758824208485E+01  0.602270647121E+05  0.375591911455E+08
  0.702515352457E-03  0.419399047821E+06  0.948140706655E+01  0.758824453696E+01  0.758824189864E+01  0.602270526453E+05  0.375591842935E+08
  0.714673322172E-03  0.419398979998E+06  0.948140706600E+01  0.758824449394E+01  0.758824186073E+01  0.602270405500E+05  0.375591775741E+08
  0.726831291888E-03  0.419398913163E+06  0.948140706541E+01  0.758824445089E+01  0.758824177758E+01  0.602270284136E+05  0.375591709838E+08
  0.738989261603E-03  0.419398847302E+06  0.948140706478E+01  0.758824440781E+01  0.758824169611E+01  0.602270162245E+05  0.375591645192E+08
  0.751147231318E-03  0.419398782406E+06  0.948140706411E+01  0.758824436469E+01  0.758824164935E+01  0.602270039730E+05  0.375591581772E+08
  0.763305201034E-03  0.419398718470E+06  0.948140706340E+01  0.758824432152E+01  0.758824153836E+01  0.602269916521E+05  0.375591519549E+08
  0.775463170749E-03  0.419398655494E+06  0.948140706265E+01  0.758824427828E+01  0.758824153773E+01  0.602269792577E+05  0.375591458501E+08
  0.787621140465E-03  0.419398593484E+06  0.948140706187E+01  0.758824423499E+01  0.758824138429E+01  0.602269667880E+05  0.375591398613E+08
  0.799779110180E-03  0.419398532448E+06  0.948140706105E+01  0.758824419163E+01  0.758824125893E+01  0.602269542431E+05  0.375591339875E+08
  0.811937079896E-03  0.419398472395E+06  0.948140706019E+01  0.758824414821E+01  0.758824124321E+01  0.602269416236E+05  0.375591282284E+08
  0.824095049611E-03  0.419398413340E+06  0.948140705930E+01  0.758824410475E+01  0.758824118370E+01  0.602269289303E+05  0.375591225841E+08
  0.836253019326E-03  0.419398355292E+06  0.948140705838E+01  0.758824406124E+01  0.758824107524E+01  0.602269161625E+05  0.375591170547E+08
  0.848410989042E-03  0.419398298264E+06  0.948140705743E+01  0.758824401771E+01  0.758824104256E+01  0.602269033178E+05  0.375591116406E+08
  0.860568958757E-03  0.419398242266E+06  0.948140705645E+01  0.758824397416E+01  0.758824091657E+01  0.602268903916E+05  0.375591063421E+08
  0.872726928473E-03  0.419398187305E+06  0.948140705544E+01  0.758824393060E+01  0.758824088121E+01  0.602268773776E+05  0.375591011594E+08
  0.884884898188E-03  0.419398133389E+06  0.948140705440E+01  0.758824388704E+01  0.758824078922E+01  0.602268642675E+05  0.375590960922E+08
  0.897042867903E-03  0.419398080523E+06  0.948140705333E+01  0.758824384349E+01  0.758824069890E+01  0.602268510528E+05  0.375590911403E+08
  0.909200837619E-03  0.419398028713E+06  0.948140705224E+01  0.758824379995E+01  0.758824070857E+01  0.602268377248E+05  0.375590863035E+08
  0.921358807334E-03  0.419397977964E+06  0.948140705113E+01  0.758824375642E+01  0.758824061187E+01  0.602268242760E+05  0.375590815814E+08
  0.933516777050E-03  0.419397928281E+06  0.948140704998E+01  0.758824371293E+01  0.758824051266E+01  0.602268107006E+05  0.375590769740E+08
  0.945674746765E-03  0.419397879673E+06  0.948140704882E+01  0.758824366947E+01  0.758824045286E+01  0.602267969949E+05  0.375590724815E+08
  0.957832716481E-03  0.419397832148E+06  0.948140704764E+01  0.758824362605E+01  0.758824034221E+01  0.602267831574E+05  0.375590681044E+08
  0.969990686196E-03  0.419397785718E+06  0.948140704644E+01  0.758824358270E+01  0.758824030466E+01  0.602267691887E+05  0.375590638434E+08
  0.982148655911E-03  0.419397740394E+06  0.948140704522E+01  0.758824353941E+01  0.758824028351E+01  0.602267550911E+05  0.375590596996E+08
  0.994306625627E-03  0.419397696190E+06  0.948140704398E+01  0.758824349622E+01  0.758824023730E+01  0.602267408676E+05  0.375590556745E+08
  0.100646459534E-02  0.419397653122E+06  0.948140704272E+01  0.758824345314E+01  0.758824015785E+01  0.602267265221E+05  0.375590517694E+08
  0.101862256506E-02  0.419397611204E+06  0.948140704145E+01  0.758824341020E+01  0.758824012437E+01  0.602267120578E+05  0.375590479857E+08
  0.103078053477E-02  0.419397570453E+06  0.948140704017E+01  0.758824336741E+01  0.758824010392E+01  0.602266974781E+05  0.375590443249E+08
  0.104293850449E-02  0.419397530887E+06  0.948140703887E+01  0.758824332481E+01  0.758824004368E+01  0.602266827852E+05  0.375590407880E+08
  0.105509647420E-02  0.419397492522E+06  0.948140703755E+01  0.758824328241E+01  0.758823998014E+01  0.602266679810E+05  0.375590373762E+08
  0.106725444392E-02  0.419397455379E+06  0.948140703623E+01  0.758824324024E+01  0.758823993877E+01  0.602266530669E+05  0.375590340902E+08
  0.107941241363E-02  0.419397419476E+06  0.948140703490E+01  0.758824319832E+01  0.758823999112E+01  0.602266380443E+05  0.375590309310E+08
  0.109157038335E-02  0.419397384835E+06  0.948140703355E+01  0.758824315667E+01  0.758823987921E+01  0.602266229149E+05  0.375590278990E+08
  0.110372835307E-02  0.419397351480E+06  0.948140703220E+01  0.758824311533E+01  0.758823979906E+01  0.602266076809E+05  0.375590249953E+08
  0.111588632278E-02  0.419397319436E+06  0.948140703084E+01  0.758824307431E+01  0.758823970641E+01  0.602265923456E+05  0.375590222207E+08
  0.112804429250E-02  0.419397288730E+06  0.948140702947E+01  0.758824303365E+01  0.758823973081E+01  0.602265769135E+05  0.375590195766E+08
  0.114020226221E-02  0.419397259391E+06  0.948140702809E+01  0.758824299337E+01  0.758823967896E+01  0.602265613900E+05  0.375590170644E+08
  0.115236023193E-02  0.419397231453E+06  0.948140702671E+01  0.758824295349E+01  0.758823965977E+01  0.602265457818E+05  0.375590146861E+08
  0.116451820164E-02  0.419397204946E+06  0.948140702532E+01  0.758824291406E+01  0.758823957789E+01  0.602265300966E+05  0.375590124439E+08
  0.117667617136E-02  0.419397179906E+06  0.948140702393E+01  0.758824287511E+01  0.758823954955E+01  0.602265143429E+05  0.375590103405E+08
  0.118883414107E-02  0.419397156366E+06  0.948140702253E+01  0.758824283666E+01  0.758823954126E+01  0.602264985294E+05  0.375590083785E+08
  0.120099211079E-02  0.419397134361E+06  0.948140702113E+01  0.758824279875E+01  0.758823946076E+01  0.602264826655E+05  0.375590065609E+08
  0.121315008050E-02  0.419397113924E+06  0.948140701972E+01  0.758824276142E+01  0.758823945633E+01  0.602264667601E+05  0.375590048904E+08
  0.122530805022E-02  0.419397095087E+06  0.948140701831E+01  0.758824272469E+01  0.758823943775E+01  0.602264508222E+05  0.375590033699E+08
  0.123746601993E-02  0.419397077880E+06  0.948140701690E+01  0.758824268860E+01  0.758823940215E+01  0.602264348606E+05  0.375590020018E+08
  0.124962398965E-02  0.419397062329E+06  0.948140701549E+01  0.758824265318E+01  0.758823938719E+01  0.602264188836E+05  0.375590007882E+08
  0.126178195937E-02  0.419397048463E+06  0.948140701407E+01  0.758824261846E+01  0.758823930615E+01  0.602264028993E+05  0.375589997310E+08
  0.127393992908E-02  0.419397036303E+06  0.948140701265E+01  0.758824258446E+01  0.758823931293E+01  0.602263869157E+05  0.375589988317E+08
  0.128609789880E-02  0.419397025872E+06  0.948140701123E+01  0.758824255123E+01  0.758823929860E+01  0.602263709413E+05  0.375589980916E+08
  0.129825586851E-02  0.419397017190E+06  0.948140700981E+01  0.758824251878E+01  0.758823924835E+01  0.602263549844E+05  0.375589975116E+08
  0.131041383823E-02  0.419397010278E+06  0.948140700839E+01  0.758824248714E+01  0.758823919887E+01  0.602263390546E+05  0.375589970926E+08
  0.132257180794E-02  0.419397005155E+06  0.948140700696E+01  0.758824245635E+01  0.758823920821E+01  0.602263231620E+05  0.375589968356E+08
  0.133472977766E-02  0.419397001838E+06  0.948140700554E+01  0.758824242644E+01  0.758823918428E+01  0.602263073178E+05  0.375589967416E+08
  0.134688774737E-02  0.419397000347E+06  0.948140700411E+01  0.758824239742E+01  0.758823915855E+01  0.602262915340E+05  0.375589968117E+08
  0.135904571709E-02  0.419397000698E+06  0.948140700269E+01  0.758824236934E+01  0.758823913931E+01  0.602262758235E+05  0.375589970470E+08
  0.137120368680E-02  0.419397002908E+06  0.948140700126E+01  0.758824234223E+01  0.758823913386E+01  0.602262601999E+05  0.375589974489E+08
  0.138336165652E-02  0.419397006992E+06  0.948140699984E+01  0.758824231611E+01  0.758823909566E+01  0.602262446767E+05  0.375589980187E+08
  0.139551962624E-02  0.419397012960E+06  0.948140699841E+01  0.758824229102E+01  0.758823906146E+01  0.602262292673E+05  0.375589987578E+08
  0.140767759595E-02  0.419397020824E+06  0.948140699698E+01  0.758824226700E+01  0.758823905779E+01  0.602262139842E+05  0.375589996672E+08
  0.141983556567E-02  0.419397030588E+06  0.948140699556E+01  0.758824224407E+01  0.758823901312E+01  0.602261988394E+05  0.375590007478E+08
  0.143199353538E-02  0.419397042255E+06  0.948140699413E+01  0.758824222226E+01  0.758823897859E+01  0.602261838434E+05  0.375590019999E+08
  0.144415150510E-02  0.419397055824E+06  0.948140699270E+01  0.758824220161E+01  0.758823898543E+01  0.602261690061E+05  0.375590034236E+08
  0.145630947481E-02  0.419397071291E+06  0.948140699127E+01  0.758824218213E+01  0.758823892153E+01  0.602261543359E+05  0.375590050184E+08
  0.146846744453E-02  0.419397088647E+06  0.948140698984E+01  0.758824216386E+01  0.758823898481E+01  0.602261398413E+05  0.375590067837E+08
  0.148062541424E-02  0.419397107885E+06  0.948140698841E+01  0.758824214681E+01  0.758823895718E+01  0.602261255301E+05  0.375590087181E+08
  0.149278338396E-02  0.419397128991E+06  0.948140698698E+01  0.758824213100E+01  0.758823895549E+01  0.602261114107E+05  0.375590108206E+08
  0.150494135367E-02  0.419397151955E+06  0.948140698555E+01  0.758824211646E+01  0.758823898182E+01  0.602260974917E+05  0.375590130897E+08
  0.151709932339E-02  0.419397176761E+06  0.948140698411E+01  0.758824210320E+01  0.758823897305E+01  0.602260837829E+05  0.375590155240E+08
  0.152925729310E-02  0.419397203396E+06  0.948140698268E+01  0.758824209123E+01  0.758823888858E+01  0.602260702944E+05  0.375590181222E+08
  0.154141526282E-02  0.419397231844E+06  0.948140698124E+01  0.758824208058E+01  0.758823889469E+01  0.602260570373E+05  0.375590208830E+08
  0.155357323254E-02  0.419397262090E+06  0.948140697980E+01  0.758824207125E+01  0.758823894179E+01  0.602260440228E+05  0.375590238052E+08
  0.156573120225E-02  0.419397294116E+06  0.948140697836E+01  0.758824206326E+01  0.758823888008E+01  0.602260312620E+05  0.375590268875E+08
  0.157788917197E-02  0.419397327902E+06  0.948140697692E+01  0.758824205662E+01  0.758823892671E+01  0.602260187656E+05  0.375590301287E+08
  0.159004714168E-02  0.419397363426E+06  0.948140697548E+01  0.758824205134E+01  0.758823894661E+01  0.602260065432E+05  0.375590335271E+08
  0.160220511140E-02  0.419397400664E+06  0.948140697403E+01  0.758824204743E+01  0.758823889176E+01  0.602259946030E+05  0.375590370812E+08
  0.161436308111E-02  0.419397439590E+06  0.948140697258E+01  0.758824204489E+01  0.758823888502E+01  0.602259829522E+05  0.375590407887E+08
  0.162652105083E-02  0.419397480174E+06  0.948140697113E+01  0.758824204374E+01  0.758823892798E+01  0.602259715962E+05  0.375590446475E+08
  0.163867902054E-02  0.419397522384E+06  0.948140696968E+01  0.758824204396E+01  0.758823892802E+01  0.602259605396E+05  0.375590486548E+08
